,start,end,pitch,velocity
0,13.948616420833332,14.208890137499997,62.0,93.0
1,14.154095670833332,14.347588631249998,64.0,61.0
2,14.359574920833332,14.467451527083332,67.0,72.0
3,14.565054170833331,14.657519833333332,69.0,87.0
4,14.770533420833331,15.160943995833332,74.0,108.0
5,15.18149192083333,15.539368281249997,69.0,87.0
6,15.592450420833332,15.878409043749999,62.0,74.0
7,15.797929670833332,16.082175966666664,64.0,67.0
8,16.00340892083333,16.128408797916663,67.0,61.0
9,16.20888817083333,16.3047784875,69.0,64.0
10,16.41436742083333,16.72087396875,74.0,74.0
11,16.825325920833333,17.05135309583333,69.0,69.0
12,17.030805170833332,17.152380393749997,74.0,86.0
13,17.236284420833332,17.48799650208333,62.0,65.0
14,17.441763670833332,17.691763424999998,64.0,58.0
15,17.64724292083333,17.92463990833333,67.0,71.0
16,17.85272217083333,17.972585066666664,69.0,64.0
17,18.05820142083333,18.39724218333333,74.0,114.0
18,18.88011842083333,19.140392137499997,62.0,93.0
19,19.08559767083333,19.279090631249996,64.0,61.0
20,19.29107692083333,19.398953527083332,67.0,72.0
21,19.49655617083333,19.58902183333333,69.0,87.0
22,19.70203542083333,20.09244599583333,74.0,108.0
23,20.11299392083333,20.470870281249997,69.0,87.0
24,20.523952420833332,20.80991104375,62.0,74.0
25,20.729431670833332,21.013677966666663,64.0,67.0
26,20.93491092083333,21.059910797916665,67.0,61.0
27,21.14039017083333,21.236280487499997,69.0,64.0
28,21.34586942083333,21.652375968749997,74.0,74.0
29,21.75682792083333,21.98285509583333,69.0,69.0
30,21.96230717083333,22.08388239375,74.0,86.0
31,22.16778642083333,22.41949850208333,62.0,65.0
32,22.37326567083333,22.623265424999996,64.0,58.0
33,22.57874492083333,22.85614190833333,67.0,71.0
34,22.78422417083333,22.904087066666662,69.0,64.0
35,22.98970342083333,23.32874418333333,74.0,114.0
36,23.81162042083333,24.03764759583333,62.0,72.0
37,24.01709967083333,24.256825462499997,64.0,65.0
38,24.22257892083333,24.316756910416665,67.0,63.0
39,24.42805817083333,24.51538685208333,69.0,75.0
40,24.63353742083333,24.89552346458333,74.0,100.0
41,25.04449592083333,25.232851899999996,69.0,62.0
42,25.24997517083333,25.35271479583333,74.0,93.0
43,25.45545442083333,25.688330904166662,62.0,73.0
44,25.66093367083333,25.878399210416664,64.0,71.0
45,25.86641292083333,25.940042985416664,67.0,67.0
46,26.07189217083333,26.15922085208333,69.0,70.0
47,26.27737142083333,26.715727154166665,74.0,95.0
48,26.68832992083333,27.09928842083333,69.0,77.0
49,27.09928842083333,27.359562137499996,62.0,70.0
50,27.30476767083333,27.450315472916664,66.0,71.0
51,27.51024692083333,27.804767179166664,67.0,63.0
52,27.715726170833328,27.928054729166664,69.0,67.0
53,27.92120542083333,28.205451716666662,74.0,79.0
54,28.33216392083333,28.679766318749998,74.0,79.0
55,28.74312242083333,29.011957772916663,62.0,65.0
56,28.94860167083333,29.27223148958333,64.0,66.0
57,29.15408092083333,29.38524507708333,66.0,65.0
58,29.35956017083333,29.475998412499997,67.0,81.0
59,29.56503942083333,29.89380622083333,74.0,98.0
60,30.38695642083333,30.635243847916662,62.0,73.0
61,30.59243567083333,30.71058623958333,64.0,71.0
62,30.79791492083333,30.910928508333328,67.0,77.0
63,31.003394170833328,31.089010524999996,69.0,77.0
64,31.208873420833328,31.638667518749997,72.0,81.0
65,31.619831920833327,31.78079066666666,69.0,70.0
66,31.82531117083333,32.011954822916664,72.0,74.0
67,32.03079042083333,32.29962577291666,62.0,74.0
68,32.23626967083333,32.51024200416666,64.0,64.0
69,32.44174892083333,32.67462540416666,67.0,60.0
70,32.64722817083333,32.765378739583326,69.0,74.0
71,32.852707420833326,33.03763874583333,72.0,74.0
72,33.05818667083333,33.246542649999995,67.0,70.0
73,33.263665920833326,33.67291209374999,69.0,83.0
74,33.67462442083333,33.955446062499995,62.0,83.0
75,33.88010367083333,34.13524040625,64.0,63.0
76,34.08558292083333,34.297911479166665,67.0,70.0
77,34.29106217083333,34.3869524875,69.0,72.0
78,34.49654142083333,34.857842435416664,74.0,98.0
79,34.90749992083333,35.077020302083326,69.0,71.0
80,35.31845842083333,35.66092383749999,62.0,76.0
81,35.52393767083333,35.70373201458333,64.0,65.0
82,35.72941692083333,35.83386887291666,67.0,70.0
83,35.934896170833326,36.02736183333333,69.0,81.0
84,36.14037542083333,36.53763530416666,74.0,100.0
85,36.96229242083333,37.229415445833325,62.0,79.0
86,37.167771670833325,37.325305762499994,64.0,64.0
87,37.37325092083333,37.474278218749994,67.0,67.0
88,37.57873017083333,37.66434652499999,69.0,86.0
89,37.78420942083333,38.070168043749995,74.0,81.0
90,38.60612642083333,38.90064667916666,62.0,85.0
91,38.81160567083333,38.99140001458333,64.0,60.0
92,39.01708492083333,39.10098894791666,67.0,69.0
93,39.22256417083333,39.32016681458333,69.0,74.0
94,39.428043420833326,40.30817954166666,74.0,86.0
95,40.249960420833325,40.51023413749999,62.0,93.0
96,40.45543967083333,40.64893263124999,64.0,61.0
97,40.660918920833325,40.76879552708333,67.0,72.0
98,40.86639817083333,40.958863833333325,69.0,87.0
99,41.071877420833324,41.46228799583333,74.0,108.0
100,41.48283592083333,41.84071228124999,69.0,87.0
101,41.89379442083333,42.17975304375,62.0,74.0
102,42.09927367083333,42.38351996666666,64.0,67.0
103,42.30475292083333,42.42975279791666,67.0,61.0
104,42.510232170833326,42.606122487499995,69.0,64.0
105,42.71571142083333,43.02221796874999,74.0,74.0
106,43.12666992083333,43.35269709583333,69.0,69.0
107,43.332149170833326,43.453724393749994,74.0,86.0
108,43.53762842083333,43.78934050208333,62.0,65.0
109,43.743107670833325,43.99310742499999,64.0,58.0
110,43.94858692083333,44.225983908333326,67.0,71.0
111,44.154066170833325,44.27392906666666,69.0,64.0
112,44.35954542083333,44.698586183333326,74.0,114.0
113,45.18146242083333,45.441736137499994,62.0,93.0
114,45.38694167083333,45.58043463124999,64.0,61.0
115,45.59242092083333,45.70029752708333,67.0,72.0
116,45.79790017083333,45.89036583333333,69.0,87.0
117,46.003379420833326,46.39378999583333,74.0,108.0
118,46.414337920833326,46.772214281249994,69.0,87.0
119,46.825296420833325,47.11125504374999,62.0,74.0
120,47.03077567083333,47.31502196666666,64.0,67.0
121,47.236254920833325,47.36125479791666,67.0,61.0
122,47.44173417083333,47.5376244875,69.0,64.0
123,47.647213420833324,47.95371996874999,74.0,74.0
124,48.058171920833324,48.28419909583333,69.0,69.0
125,48.26365117083333,48.385226393749996,74.0,86.0
126,48.469130420833324,48.72084250208333,62.0,65.0
127,48.67460967083333,48.92460942499999,64.0,58.0
128,48.88008892083333,49.15748590833333,67.0,71.0
129,49.08556817083333,49.20543106666666,69.0,64.0
130,49.29104742083333,49.63008818333333,74.0,114.0
131,50.11296442083333,50.33899159583333,62.0,72.0
132,50.318443670833325,50.55816946249999,64.0,65.0
133,50.52392292083333,50.61810091041666,67.0,63.0
134,50.729402170833325,50.816730852083325,69.0,75.0
135,50.93488142083333,51.19686746458333,74.0,100.0
136,51.34583992083333,51.53419589999999,69.0,62.0
137,51.551319170833324,51.65405879583333,74.0,93.0
138,51.75679842083333,51.98967490416666,62.0,73.0
139,51.96227767083332,52.17974321041666,64.0,71.0
140,52.16775692083333,52.24138698541666,67.0,67.0
141,52.37323617083332,52.46056485208333,69.0,70.0
142,52.578715420833326,53.01707115416666,74.0,95.0
143,52.989673920833326,53.400632420833325,69.0,77.0
144,53.400632420833325,53.66090613749999,62.0,70.0
145,53.60611167083333,53.75165947291666,66.0,71.0
146,53.811590920833325,54.10611117916666,67.0,63.0
147,54.01707017083333,54.22939872916666,69.0,67.0
148,54.222549420833325,54.50679571666666,74.0,79.0
149,54.633507920833324,54.98111031874999,74.0,79.0
150,55.044466420833324,55.31330177291666,62.0,65.0
151,55.24994567083333,55.57357548958333,64.0,66.0
152,55.45542492083332,55.686589077083326,66.0,65.0
153,55.66090417083333,55.77734241249999,67.0,81.0
154,55.86638342083332,56.19515022083333,74.0,98.0
155,56.68830042083333,56.93658784791666,62.0,73.0
156,56.893779670833325,57.01193023958333,64.0,71.0
157,57.09925892083333,57.21227250833333,67.0,77.0
158,57.304738170833325,57.39035452499999,69.0,77.0
159,57.51021742083333,57.94001151874999,72.0,81.0
160,57.92117592083333,58.08213466666666,69.0,70.0
161,58.126655170833324,58.31329882291666,72.0,74.0
162,58.33213442083333,58.600969772916656,62.0,74.0
163,58.53761367083332,58.81158600416666,64.0,64.0
164,58.74309292083333,58.97596940416666,67.0,60.0
165,58.94857217083332,59.06672273958333,69.0,74.0
166,59.154051420833326,59.33898274583333,72.0,74.0
167,59.35953067083332,59.547886649999995,67.0,70.0
168,59.565009920833326,59.97425609374999,69.0,83.0
169,59.975968420833325,60.256790062499995,62.0,83.0
170,60.18144767083333,60.43658440624999,64.0,63.0
171,60.386926920833325,60.59925547916666,67.0,70.0
172,60.59240617083333,60.68829648749999,69.0,72.0
173,60.797885420833325,61.15918643541666,74.0,98.0
174,61.208843920833324,61.37836430208333,69.0,71.0
175,61.619802420833324,61.962267837499994,62.0,76.0
176,61.82528167083333,62.005076014583324,64.0,65.0
177,62.03076092083332,62.13521287291666,67.0,70.0
178,62.23624017083333,62.32870583333332,69.0,81.0
179,62.44171942083332,62.83897930416666,74.0,100.0
180,63.26363642083332,63.530759445833326,62.0,79.0
181,63.469115670833325,63.626649762499994,64.0,64.0
182,63.67459492083332,63.775622218749994,67.0,67.0
183,63.880074170833325,63.96569052499999,69.0,86.0
184,64.08555342083332,64.37151204374999,74.0,81.0
185,64.90747042083332,65.20199067916666,62.0,85.0
186,65.11294967083333,65.29274401458332,64.0,60.0
187,65.31842892083333,65.40233294791666,67.0,69.0
188,65.52390817083332,65.62151081458333,69.0,74.0
189,65.72938742083332,66.55130442083332,74.0,86.0
190,66.55130442083332,66.75849599791665,76.0,93.0
191,66.75678367083333,66.93657801458332,71.0,65.0
192,66.96226292083333,67.12150933958333,74.0,85.0
193,67.16774217083332,67.35609815,69.0,77.0
194,67.37322142083332,67.58041299791665,71.0,71.0
195,67.57870067083333,67.73109778124999,67.0,87.0
196,67.78417992083332,67.98623451666666,69.0,70.0
197,67.98965917083332,68.17972747708332,64.0,77.0
198,68.19513842083333,68.445138175,62.0,90.0
199,68.40061767083333,68.57356270624999,64.0,69.0
200,68.60609692083332,68.70198723749999,67.0,87.0
201,68.81157617083332,68.90232950624998,69.0,98.0
202,69.01705542083333,69.10609642916666,71.0,90.0
203,69.22253467083333,69.30472637083332,74.0,87.0
204,69.42801392083332,69.62321920833332,76.0,112.0
205,69.63349317083332,69.75678072083332,79.0,117.0
206,70.04445167083333,70.11979406249999,64.0,43.0
207,69.83897242083333,70.14205431458332,62.0,74.0
208,70.24993092083332,70.37493079791666,67.0,74.0
209,70.45541017083332,70.65575243958332,69.0,62.0
210,70.66088942083333,70.94342338958333,62.0,72.0
211,70.86636867083332,71.17629987291666,64.0,66.0
212,71.07184792083332,71.29273811458333,67.0,60.0
213,71.27732717083332,71.51705296249999,69.0,64.0
214,71.48280642083333,71.75164177291666,62.0,72.0
215,71.68828567083332,72.00849083541665,64.0,60.0
216,71.89376492083332,72.12835373124999,67.0,59.0
217,72.09924417083333,72.328696,69.0,74.0
218,72.30472342083333,72.46396983958333,62.0,60.0
219,72.51020267083332,72.8218462,64.0,63.0
220,72.71568192083332,72.94513375,67.0,64.0
221,72.92116117083333,73.16088696249999,69.0,67.0
222,73.12664042083333,73.38520181041666,62.0,81.0
223,73.33211967083332,73.63691389166665,64.0,60.0
224,73.53759892083332,73.76191376874999,67.0,60.0
225,73.74307817083333,73.97766698125,69.0,71.0
226,73.94855742083332,74.24650233333332,62.0,71.0
227,74.15403667083332,74.47424183541666,64.0,60.0
228,74.35951592083332,74.58725542291666,67.0,59.0
229,74.56499517083333,74.80814561666665,69.0,63.0
230,74.77047442083332,75.01191253958332,64.0,70.0
231,74.97595367083332,75.16259732291665,67.0,59.0
232,75.18143292083332,75.35266562916665,69.0,64.0
233,75.38691217083333,75.55300789791666,64.0,72.0
234,75.59239142083332,75.75506249374999,67.0,63.0
235,75.79787067083332,76.006774575,64.0,72.0
236,76.00334992083333,76.19513055416665,67.0,72.0
237,76.20882917083333,76.36465093541666,69.0,104.0
238,76.41430842083332,76.71054100624998,62.0,76.0
239,76.61978767083332,76.86122578958333,64.0,60.0
240,76.82526692083333,77.04444478749998,67.0,71.0
241,77.03074617083332,77.27389661666666,69.0,64.0
242,77.23622542083332,77.54101964166665,62.0,64.0
243,77.44170467083332,77.74478656458332,64.0,61.0
244,77.64718392083333,77.86807411458332,67.0,67.0
245,77.85266317083332,78.11122456041666,69.0,63.0
246,78.05814242083332,78.34581337083333,62.0,67.0
247,78.26362167083332,78.57526519999999,64.0,63.0
248,78.46910092083333,78.65745689999999,67.0,61.0
249,78.67458017083332,78.88177174791666,69.0,65.0
250,78.88005942083332,79.14547011874998,62.0,72.0
251,79.08553867083333,79.39033289166666,64.0,65.0
252,79.29101792083333,79.50334647916665,67.0,62.0
253,79.49649717083332,79.71396271041665,69.0,71.0
254,79.70197642083332,79.96396246458332,62.0,79.0
255,79.90745567083333,80.23451014374999,64.0,64.0
256,80.11293492083333,80.35437303958332,67.0,60.0
257,80.31841417083332,80.52218109374999,69.0,61.0
258,80.52389342083332,80.78416713749999,62.0,75.0
259,80.72937267083333,81.02218060208332,64.0,65.0
260,80.93485192083332,81.18656400208332,67.0,59.0
261,81.14033117083332,81.36807067291666,69.0,69.0
262,81.34581042083332,81.61635809999999,74.0,66.0
263,81.55128967083333,81.81498804166665,64.0,69.0
264,81.75676892083332,81.89717974166666,67.0,67.0
265,81.96224817083332,82.08896037499998,69.0,104.0
266,82.16772742083332,82.40402855833332,64.0,66.0
267,82.37320667083333,82.5718366125,67.0,64.0
268,82.57868592083332,82.71909674166666,69.0,83.0
269,82.78416517083332,82.92115133749999,67.0,69.0
270,82.98964442083333,83.21738392291665,59.0,74.0
271,83.19512367083333,83.39204128541665,64.0,69.0
272,83.40060292083332,83.63690405833333,66.0,85.0
273,83.81156142083333,84.05299953958333,64.0,85.0
274,84.01704067083332,84.23279388333333,67.0,61.0
275,84.22251992083332,84.49306759999999,69.0,77.0
276,87.09922942083332,87.38176338958333,62.0,73.0
277,87.30470867083332,87.61292754583332,64.0,62.0
278,87.51018792083332,87.66087270416665,67.0,63.0
279,87.71566717083333,87.94340667291665,69.0,67.0
280,87.92114642083332,88.212242025,62.0,74.0
281,88.12662567083332,88.41943360208332,64.0,67.0
282,88.33210492083332,88.53073486249998,67.0,60.0
283,88.53758417083333,88.77046065416665,69.0,63.0
284,88.74306342083332,89.02730971666665,62.0,63.0
285,88.94854267083332,89.24819991041666,64.0,65.0
286,89.15402192083332,89.39032305833332,67.0,60.0
287,89.35950117083333,89.54956947708332,69.0,74.0
288,89.56498042083332,89.84580206249998,62.0,75.0
289,89.77045967083332,90.04443200416665,64.0,73.0
290,89.97593892083331,90.17456886249998,67.0,63.0
291,90.18141817083333,90.39032207499999,69.0,72.0
292,90.38689742083332,90.68997931458333,62.0,68.0
293,90.59237667083332,90.91600648958332,64.0,72.0
294,90.79785592083333,91.00847215208331,67.0,60.0
295,91.00333517083332,91.21566372916665,69.0,60.0
296,91.20881442083332,91.48621140833332,62.0,66.0
297,91.41429367083332,91.76360839583332,64.0,65.0
298,91.61977292083333,91.82353984374998,67.0,65.0
299,91.82525217083332,92.05984098124999,69.0,72.0
300,92.03073142083332,92.28586815624999,62.0,61.0
301,92.23621067083332,92.59066237708332,64.0,67.0
302,92.44168992083333,92.59922401249999,67.0,60.0
303,92.64716917083332,92.81840187916666,69.0,65.0
304,92.85264842083332,93.05299068958332,76.0,75.0
305,93.05812767083331,93.29785346249999,71.0,68.0
306,93.26360692083333,93.37319585416665,74.0,86.0
307,93.46908617083332,93.62662026249998,76.0,79.0
308,93.67456542083332,93.86977070833332,71.0,74.0
309,93.88004467083331,93.98620894999999,74.0,67.0
310,94.08552392083332,94.19682518124999,76.0,79.0
311,94.29100317083332,94.49648242083332,74.0,95.0
312,94.49648242083332,94.76874242708332,64.0,81.0
313,94.70196167083333,94.93997513541666,67.0,61.0
314,94.90744092083332,95.12661878749999,69.0,74.0
315,95.11292017083332,95.24476935624999,62.0,73.0
316,95.31839942083332,95.52387867083333,64.0,86.0
317,95.52387867083333,95.78072773333332,67.0,76.0
318,95.72935792083332,95.95709742291666,69.0,74.0
319,95.93483717083332,96.09065893541666,67.0,75.0
320,96.34579567083333,96.42113806249999,64.0,43.0
321,96.14031642083332,96.44339831458332,62.0,74.0
322,96.55127492083332,96.67627479791665,67.0,74.0
323,96.75675417083332,96.95709643958332,69.0,62.0
324,96.96223342083331,97.24476738958332,62.0,72.0
325,97.16771267083332,97.47764387291666,64.0,66.0
326,97.37319192083332,97.59408211458332,67.0,60.0
327,97.57867117083332,97.81839696249999,69.0,64.0
328,97.78415042083331,98.05298577291666,62.0,72.0
329,97.98962967083332,98.30983483541665,64.0,60.0
330,98.19510892083332,98.42969773124999,67.0,59.0
331,98.40058817083332,98.63004,69.0,74.0
332,98.60606742083333,98.76531383958331,62.0,60.0
333,98.81154667083332,99.12319019999998,64.0,63.0
334,99.01702592083332,99.24647774999998,67.0,64.0
335,99.22250517083332,99.46223096249999,69.0,67.0
336,99.42798442083333,99.68654581041665,62.0,81.0
337,99.63346367083332,99.93825789166665,64.0,60.0
338,99.83894292083332,100.06325776874999,67.0,60.0
339,100.04442217083331,100.27901098124998,69.0,71.0
340,100.24990142083333,100.54784633333333,62.0,71.0
341,100.45538067083332,100.77558583541665,64.0,60.0
342,100.66085992083332,100.88859942291666,67.0,59.0
343,100.86633917083331,101.10948961666665,69.0,63.0
344,101.07181842083332,101.31325653958332,64.0,70.0
345,101.27729767083332,101.46394132291665,67.0,59.0
346,101.48277692083332,101.65400962916665,69.0,64.0
347,101.68825617083331,101.85435189791666,64.0,72.0
348,101.89373542083332,102.05640649374999,67.0,63.0
349,102.09921467083332,102.30811857499998,64.0,72.0
350,102.30469392083332,102.49647455416665,67.0,72.0
351,102.51017317083333,102.66599493541665,69.0,104.0
352,102.71565242083332,103.01188500624998,62.0,76.0
353,102.92113167083332,103.16256978958332,64.0,60.0
354,103.12661092083331,103.34578878749998,67.0,71.0
355,103.33209017083333,103.57524061666665,69.0,64.0
356,103.53756942083332,103.84236364166665,62.0,64.0
357,103.74304867083332,104.04613056458332,64.0,61.0
358,103.94852792083331,104.16941811458332,67.0,67.0
359,104.15400717083332,104.41256856041666,69.0,63.0
360,104.35948642083332,104.64715737083331,62.0,67.0
361,104.56496567083332,104.87660919999999,64.0,63.0
362,104.77044492083331,104.95880089999999,67.0,61.0
363,104.97592417083332,105.18311574791666,69.0,65.0
364,105.18140342083332,105.44681411874998,62.0,72.0
365,105.38688267083332,105.69167689166665,64.0,65.0
366,105.59236192083333,105.80469047916665,67.0,62.0
367,105.79784117083332,106.01530671041665,69.0,71.0
368,106.00332042083332,106.26530646458332,62.0,79.0
369,106.20879967083332,106.53585414374999,64.0,64.0
370,106.41427892083333,106.65571703958332,67.0,60.0
371,106.61975817083332,106.82352509374999,69.0,61.0
372,106.82523742083332,107.08551113749999,62.0,75.0
373,107.03071667083331,107.32352460208332,64.0,65.0
374,107.23619592083332,107.48790800208332,67.0,59.0
375,107.44167517083332,107.66941467291666,69.0,69.0
376,107.64715442083332,107.91770209999999,74.0,66.0
377,107.85263367083331,108.11633204166665,64.0,69.0
378,108.05811292083332,108.19852374166665,67.0,67.0
379,108.26359217083332,108.39030437499999,69.0,104.0
380,108.46907142083332,108.70537255833332,64.0,66.0
381,108.67455067083331,108.87318061249998,67.0,64.0
382,108.88002992083332,109.02044074166665,69.0,83.0
383,109.08550917083332,109.22249533749998,67.0,69.0
384,109.29098842083332,109.51872792291665,59.0,74.0
385,109.49646767083333,109.69338528541665,64.0,69.0
386,109.70194692083332,109.93824805833331,66.0,85.0
387,110.11290542083331,110.35434353958333,64.0,85.0
388,110.31838467083332,110.53413788333332,67.0,61.0
389,110.52386392083332,110.79441159999999,69.0,77.0
390,110.93482242083331,111.21050708124999,62.0,86.0
391,111.14030167083332,111.28413714583331,64.0,64.0
392,111.34578092083332,111.49817803124999,69.0,81.0
393,111.55126017083332,111.68653401041665,67.0,60.0
394,111.75673942083331,112.01016382916666,62.0,83.0
395,111.96221867083332,112.10776647291665,64.0,74.0
396,112.16769792083332,112.28756081666666,69.0,86.0
397,112.37317717083332,112.49988937499998,67.0,70.0
